#Mode:;3
#Device:;tramani_wired
#Button:;298
#minDelay:;100
#maxDelay:;10000
#iterations:;1000

counter;latency;delayTime
0;15340;8551
1;19816;4096
2;22680;1225
3;22856;1072
4;16005;7894
5;23445;451
6;19380;4528
7;19606;4312
8;22649;1270
9;25323;6598
10;18422;5500
11;20824;3097
12;25155;6742
13;20725;3151
14;23715;8209
15;15270;8659
16;23393;523
17;18036;5887
18;21157;2692
19;23315;8596
20;22555;1342
21;23010;775
22;18742;5158
23;23107;811
24;20751;3178
25;23417;8434
26;23000;919
27;17183;6787
28;21038;2899
29;12707;3196
30;13880;2053
31;13589;2350
32;24782;7138
33;14455;1423
34;13616;2296
35;13719;2188
36;26549;5374
37;12132;3772
38;15126;793
39;24839;7084
40;18459;5464
41;19877;4042
42;14098;1819
43;23465;8452
44;21403;2494
45;21702;2224
46;12685;3232
47;25267;6670
48;17434;6481
49;20472;3448
50;12884;3025
51;13417;2485
52;24231;7696
53;22223;1702
54;10960;4960
55;22920;8992
56;18202;5716
57;17531;6391
58;12308;3565
59;11956;3979
60;23094;8821
61;22464;1459
62;14844;1090
63;14884;1027
64;14579;1441
65;23921;8011
66;12957;2971
67;12440;3475
68;13139;2782
69;14146;1765
70;17439;6499
71;23877;8056
72;24298;7624
73;23344;613
74;22347;1576
75;21346;2575
76;23564;289
77;19184;4708
78;23110;829
79;24018;7921
80;23959;8065
81;21597;2323
82;16871;7039
83;21974;1945
84;22764;1153
85;17855;6067
86;21799;2107
87;25600;6310
88;24411;7498
89;17203;6760
90;22945;991
91;16257;7678
92;24109;7813
93;18601;5248
94;19974;3925
95;20977;2854
96;19644;4249
97;21645;2278
98;20717;3169
99;13156;2719
100;16239;7687
101;23458;8461
102;21133;2737
103;24555;7417
104;19770;4204
105;22529;1351
106;21028;2872
107;9859;6040
108;14289;1594
109;16673;7246
110;11024;4861
111;13562;2368
112;13965;1999
113;15168;694
114;20220;3700
115;24020;7867
116;12968;2944
117;22858;9064
118;23515;370
119;23129;8767
120;23933;8002
121;20389;3520
122;15426;8479
123;17269;6652
124;23817;190
125;22801;1135
126;22311;1639
127;22623;1261
128;23888;8038
129;17810;6139
130;20314;3628
131;17407;6526
132;14593;1405
133;12514;3394
134;25592;6355
135;19110;4798
136;14608;1333
137;20064;3916
138;23622;8236
139;22403;1486
140;13849;2089
141;18751;5122
142;11731;4177
143;12394;3556
144;13919;2035
145;14865;1009
146;16788;7129
147;11111;4834
148;13735;2197
149;18385;5590
150;22934;8983
151;24765;7183
152;22932;9019
153;19692;4222
154;15284;8650
155;20521;3367
156;19652;4240
157;23069;8830
158;16683;7219
159;16926;7030
160;22140;1783
161;22119;1747
162;23091;8839
163;21749;2143
164;21512;2377
165;22746;1216
166;21120;2836
167;21221;2764
168;23488;379
169;24907;7021
170;20783;3187
171;23000;8902
172;18064;5851
173;15996;7876
174;23207;757
175;20908;2989
176;24072;7840
177;16591;7354
178;23591;307
179;19848;4015
180;22643;1315
181;22114;1801
182;25586;6328
183;24131;7858
184;21371;2548
185;19333;4600
186;20715;3259
187;22349;1513
188;20278;3619
189;21796;2098
190;24354;7570
191;23441;469
192;17723;6193
193;20335;3601
194;23641;8299
195;19114;4789
196;20934;2917
197;21564;2269
198;23479;8407
199;17133;6769
200;21753;2170
201;19685;4231
202;13265;2629
203;14293;1603
204;13203;2728
205;27072;4879
206;11993;3880
207;15763;8119
208;10703;5257
209;26689;5239
210;23276;8569
211;19542;4438
212;16990;6895
213;24905;7012
214;20873;3034
215;18928;4996
216;23603;316
217;19616;4285
218;24225;7669
219;19585;4330
220;17128;6823
221;23079;8803
222;20974;2908
223;20879;3016
224;17972;5977
225;18825;5086
226;19442;4465
227;15381;496
228;13042;2818
229;24282;7723
230;18031;5950
231;12249;3691
232;14706;1243
233;10797;5113
234;14545;1360
235;13276;2656
236;18564;5347
237;22973;8965
238;24477;7435
239;23829;8083
240;21368;2611
241;19681;4294
242;21219;2701
243;23590;8335
244;20195;3799
245;19597;4357
246;19222;4762
247;18009;5896
248;21225;2620
249;19036;4942
250;19290;4609
251;17811;6184
252;11880;3988
253;23449;8470
254;17802;6175
255;20130;3745
256;13394;2530
257;14795;1189
258;12596;3358
259;23977;7930
260;14719;1234
261;26146;5806
262;18218;5689
263;19858;4105
264;15535;388
265;12309;3610
266;26605;5311
267;20532;3385
268;23895;8047
269;17888;6031
270;18940;4978
271;18510;5482
272;15039;847
273;11870;4069
274;24338;7552
275;21336;2566
276;24636;7282
277;21730;2233
278;24405;7489
279;17699;6220
280;20616;3268
281;21450;2458
282;24165;7741
283;23801;127
284;23243;676
285;16711;7228
286;24073;7903
287;19285;4645
288;23220;8695
289;18890;5050
290;17272;6643
291;22879;1081
292;21066;2827
293;23449;514
294;21395;2521
295;22130;1774
296;21374;2557
297;10900;5005
298;13298;2683
299;25988;5968
300;21437;2422
301;12855;3079
302;25695;6283
303;18494;5509
304;21133;2845
305;24711;7291
306;17762;6148
307;18489;5428
308;19141;4771
309;23317;8632
310;20373;3592
311;17246;6733
312;21479;2467
313;13740;2134
314;15406;541
315;15803;8173
316;12885;3052
317;22983;8884
318;24974;6886
319;17467;6427
320;22998;8938
321;23520;8353
322;16638;7318
323;22821;1108
324;23537;361
325;19902;4006
326;23311;577
327;20563;3376
328;24969;6994
329;18775;5095
330;22267;1648
331;18256;5653
332;18690;5185
333;19947;3970
334;23232;8686
335;16973;6922
336;22904;9028
337;19185;4735
338;18354;5545
339;23450;487
340;23082;8875
341;21213;2665
342;16936;6976
343;18449;5446
344;17044;6832
345;21366;2602
346;14384;1549
347;19340;4636
348;22835;9073
349;18449;5473
350;13493;2395
351;13420;2503
352;15748;199
353;20695;3277
354;25588;6382
355;24755;7120
356;20189;3727
357;20358;3502
358;17709;6211
359;22803;9091
360;23018;8920
361;19658;4258
362;16443;7462
363;20980;2935
364;24425;7525
365;23793;172
366;23319;8614
367;19381;4537
368;20694;3223
369;16409;7480
370;16813;7057
371;22546;1432
372;18085;5833
373;24715;7210
374;23794;100
375;22201;1729
376;23531;8344
377;21782;2080
378;16493;7372
379;23421;8488
380;16753;7174
381;16496;7345
382;15942;7957
383;20107;3862
384;20273;3637
385;23532;397
386;19171;4726
387;23616;8326
388;17494;6445
389;23071;8893
390;19428;4447
391;18071;5878
392;21854;2116
393;22805;1099
394;18972;4951
395;23760;118
396;14547;1369
397;11364;4591
398;25730;6202
399;25314;6616
400;22371;1585
401;19695;4168
402;19801;4078
403;24041;7885
404;19851;4060
405;22564;1414
406;23945;8020
407;19226;4681
408;20655;3304
409;22132;1792
410;20174;3754
411;18806;5149
412;10715;5212
413;11111;4825
414;12737;3160
415;11847;4033
416;15699;8191
417;18941;4987
418;23767;8110
419;18814;5140
420;14381;1531
421;15448;478
422;13775;2152
423;20131;3718
424;23667;8281
425;25359;6571
426;22347;1558
427;24550;7309
428;23313;8605
429;22822;1126
430;19513;4384
431;22233;1684
432;23501;424
433;20293;3646
434;18089;5761
435;19109;4753
436;24691;7273
437;20281;3709
438;23652;280
439;17477;6472
440;23183;766
441;24318;7579
442;17022;6877
443;21151;2773
444;19593;4303
445;12152;3781
446;23077;8866
447;22021;2017
448;22220;1630
449;25423;6553
450;23252;622
451;22847;1036
452;24675;7327
453;20535;3313
454;19511;4375
455;17867;6058
456;19752;4150
457;21542;2413
458;11679;4267
459;15341;568
460;12404;3484
461;11945;3934
462;16071;7849
463;13489;2386
464;23713;8164
465;21078;2863
466;12347;3529
467;15242;730
468;13630;2242
469;24202;7714
470;25389;6544
471;22916;9046
472;22092;1828
473;23111;8812
474;22220;1693
475;17356;6508
476;15639;8245
477;19272;4654
478;16231;7759
479;18590;5392
480;23513;8416
481;22199;1720
482;23509;442
483;18128;5842
484;21634;2206
485;20656;3286
486;25589;6319
487;21171;2791
488;23017;910
489;22063;1864
490;18584;5383
491;25088;6841
492;18367;5527
493;18777;5203
494;23239;667
495;15091;874
496;11499;4393
497;22922;8974
498;18278;5662
499;14743;1207
500;12260;3655
501;25031;6958
502;20194;3736
503;14708;1180
504;11342;4564
505;25766;6112
506;23225;721
507;23298;8623
508;23361;8587
509;23019;937
510;18319;5626
511;23837;8092
512;19151;4717
513;17244;6724
514;17637;6292
515;19020;4897
516;20104;3817
517;20795;3124
518;18821;5032
519;23082;8857
520;23345;8578
521;19695;4213
522;22671;1297
523;19845;4087
524;19434;4456
525;22179;1756
526;20085;3826
527;24836;7111
528;18573;5410
529;24209;7660
530;17361;6562
531;15777;8200
532;20819;3106
533;23474;460
534;20020;3952
535;18800;5104
536;13975;1972
537;25877;6085
538;21873;2008
539;23958;7975
540;17457;6517
541;20899;3043
542;17321;6535
543;23358;559
544;12568;3403
545;24484;7399
546;21040;2962
547;20214;3664
548;11098;4843
549;10384;5554
550;10958;4969
551;23364;8533
552;12595;3322
553;11385;4510
554;23931;7948
555;24759;7165
556;20572;3340
557;17426;6463
558;17767;6094
559;19350;4627
560;25079;6868
561;23153;8722
562;16154;7750
563;22433;1540
564;19219;4672
565;19007;4888
566;20097;3844
567;20333;3583
568;17956;5923
569;10138;5815
570;15614;352
571;24135;7795
572;17757;6103
573;14043;1873
574;10518;5419
575;25682;6229
576;20020;3853
577;15803;136
578;14879;982
579;25268;6679
580;17751;6157
581;25712;6247
582;16582;7363
583;23588;325
584;18923;5059
585;10224;5635
586;24265;7651
587;24140;7804
588;18462;5536
589;23570;8362
590;21993;1954
591;19531;4420
592;18355;5581
593;17248;6661
594;22978;883
595;18871;5023
596;20527;3430
597;20948;2926
598;13414;2539
599;15427;532
600;26708;5221
601;23056;802
602;13432;2512
603;24372;7507
604;18253;5707
605;24344;7534
606;20781;3142
607;23379;8524
608;15903;7984
609;19270;4573
610;22967;1000
611;19536;4366
612;18195;5743
613;21131;2800
614;12299;3682
615;24387;7588
616;16977;6904
617;17939;5959
618;9802;6166
619;10913;4933
620;23500;8398
621;20017;3898
622;10112;5869
623;14640;1288
624;15560;415
625;23149;8731
626;13301;2638
627;24390;7561
628;20808;3115
629;18959;4906
630;18041;5932
631;14464;1450
632;14904;1054
633;12886;2998
634;25515;6346
635;11384;4582
636;23316;8677
637;20428;3466
638;22185;1711
639;10359;5608
640;23487;8443
641;22988;8956
642;19415;4474
643;21846;2044
644;20891;2953
645;17162;6706
646;23415;505
647;11648;4321
648;11090;4807
649;15730;208
650;23546;8380
651;15132;820
652;11996;3961
653;15569;298
654;13256;2710
655;16329;7642
656;12659;3295
657;24984;6913
658;22068;1837
659;11644;4276
660;16605;7336
661;14119;1846
662;11531;4348
663;12321;3547
664;17691;6256
665;25005;6859
666;18679;5230
667;22545;1396
668;15641;253
669;11977;3889
670;25012;6931
671;22213;1657
672;23123;8749
673;18320;5599
674;17554;6337
675;22600;1378
676;13226;2647
677;25783;6130
678;17576;6409
679;17871;6076
680;15834;109
681;14753;1162
682;11857;4024
683;23855;8029
684;23691;8254
685;16913;6967
686;23200;739
687;24498;7453
688;23353;8560
689;16543;7381
690;20484;3439
691;23053;865
692;21888;2026
693;21455;2476
694;21163;2746
695;24045;7912
696;17924;6013
697;21164;2809
698;16720;7192
699;24993;6940
700;16150;7768
701;22844;1063
702;20356;3574
703;19256;4699
704;22985;964
705;11736;4132
706;23576;8290
707;22980;973
708;21983;1900
709;24927;7003
710;17649;6274
711;23732;181
712;19967;3943
713;14058;1810
714;15259;658
715;13743;2161
716;11437;4492
717;14047;1936
718;17074;6805
719;13483;2449
720;25554;6301
721;15329;640
722;15114;748
723;24318;7633
724;20974;3007
725;22900;9055
726;20554;3349
727;23059;838
728;23434;433
729;13609;2287
730;12820;3061
731;17959;5941
732;26907;5014
733;22087;1891
734;15092;784
735;23414;8506
736;24398;7543
737;23136;8785
738;20743;3214
739;15270;8668
740;18099;5788
741;16606;7390
742;20430;3493
743;18727;5176
744;21342;2584
745;18975;4924
746;23204;8704
747;18241;5680
748;17502;6418
749;24323;7615
750;17983;5995
751;17848;6049
752;19706;4159
753;24179;7732
754;22046;1882
755;22375;1522
756;22714;1198
757;23864;8074
758;17419;6490
759;17339;6589
760;17292;6634
761;20711;3205
762;12830;3070
763;19459;4501
764;24639;7300
765;23768;8155
766;20936;2980
767;22309;1666
768;23479;8389
769;19128;4780
770;22516;1387
771;17313;6580
772;23214;8713
773;21789;2125
774;18581;5338
775;20037;3907
776;22014;1909
777;21296;2593
778;18340;5617
779;15682;217
780;14796;1171
781;26471;5491
782;21664;2251
783;14024;1918
784;11425;4519
785;15032;901
786;26665;5266
787;23760;8146
788;24220;7705
789;18830;5041
790;22978;946
791;23237;595
792;22963;8947
793;22364;1612
794;17212;6697
795;23015;8911
796;15928;7966
797;22831;1117
798;16333;7606
799;16670;7255
800;23796;8137
801;16878;7066
802;21850;2062
803;17554;6373
804;23235;685
805;23393;8542
806;17484;6436
807;18517;5401
808;20466;3421
809;23269;649
810;20616;3250
811;23325;550
812;22938;9001
813;20741;3241
814;23618;262
815;22517;1468
816;15605;271
817;24515;7444
818;23634;8272
819;23019;8929
820;21670;2215
821;19695;4186
822;21146;2755
823;17990;5860
824;17580;6364
825;18089;5797
826;17927;5986
827;24146;7831
828;22420;1477
829;22698;1279
830;22203;1738
831;19286;4663
832;13475;2431
833;13972;1981
834;24881;6985
835;23622;8263
836;23827;145
837;20572;3331
838;18605;5284
839;21958;1927
840;24725;7147
841;17075;6949
842;20289;3673
843;23670;244
844;23786;8128
845;16166;7822
846;18585;5356
847;21785;2179
848;19168;4744
849;23160;8794
850;22922;1018
851;23732;226
852;23612;8308
853;23981;7993
854;21505;2359
855;16859;7048
856;23535;334
857;20457;3457
858;19887;4051
859;22320;1567
860;22136;1855
861;10122;5779
862;24713;7156
863;18224;5752
864;22948;9010
865;18226;5644
866;20035;3835
867;22878;1045
868;22226;1675
869;23357;8515
870;18733;5194
871;23675;8227
872;22266;1621
873;17269;6715
874;23377;8497
875;18121;5770
876;20173;3790
877;21838;2071
878;17926;6004
879;23154;8776
880;22794;9082
881;20497;3412
882;17327;6625
883;13586;2332
884;15481;406
885;16134;7777
886;24781;7201
887;23740;8182
888;16805;7093
889;20782;3133
890;19779;4141
891;23566;343
892;18795;5167
893;11703;4195
894;10622;5329
895;23781;8101
896;23150;8758
897;22459;1495
898;16409;7516
899;19505;4429
900;18393;5563
901;10509;5437
902;13623;2314
903;19319;4618
904;25926;6022
905;10074;5905
906;18730;5131
907;12849;3088
908;26433;5518
909;22995;928
910;10423;5455
911;15232;712
912;15016;892
913;26860;5077
914;13534;2440
915;11075;4870
916;12160;3763
917;23063;8848
918;25315;6607
919;19562;4411
920;18858;5068
921;21528;2404
922;11073;4816
923;11955;3997
924;23143;8740
925;21540;2341
926;10217;5671
927;10651;5302
928;15733;163
929;13964;1990
930;19520;4402
931;15078;856
932;14945;955
933;15281;631
934;14016;1963
935;13237;2674
936;18179;5734
937;11392;4546
938;15349;604
939;18148;5824
940;22845;9037
941;19424;4483
942;24490;7408
943;22574;1324
944;17076;6850
945;18224;5698
946;22658;1252
947;13601;2260
948;13057;2890
949;11050;4852
950;11817;4123
951;15290;703
952;16826;7075
953;26627;5275
954;23509;8371
955;20385;3511
956;17666;6238
957;18963;4915
958;25236;6751
959;17779;6121
960;18190;5725
961;23307;586
962;23737;235
963;25672;6265
964;18584;5320
965;24570;7426
966;21578;2305
967;19170;4690
968;18519;5365
969;24507;7471
970;17265;6688
971;20008;3871
972;16313;7597
973;16791;7102
974;25141;6778
975;16616;7264
976;20083;3808
977;23792;154
978;19581;4339
979;24737;7237
980;20384;3538
981;23676;8218
982;17487;6454
983;15644;8317
984;17950;5914
985;22801;1144
986;17077;6814
987;22645;1306
988;11317;4555
989;24113;7786
990;18635;5293
991;23277;8641
992;22388;1504
993;17065;6796
994;21024;2881
995;18301;5572
996;25536;6400
997;19859;4114
998;23995;7939
999;15445;8425
