#Mode:;3
#Device:;tramani_wired
#Button:;298
#minDelay:;100
#maxDelay:;10000
#iterations:;1000

counter;latency;delayTime
0;6736;2107
1;9648;271
2;8879;1054
3;4032;5761
4;4863;5032
5;8601;1297
6;11697;8236
7;6954;2926
8;7239;2692
9;8300;1612
10;3953;5968
11;5260;4627
12;11554;7327
13;4909;4996
14;12738;7147
15;8659;1261
16;5314;3583
17;11293;8623
18;9306;595
19;8502;1369
20;10729;8209
21;13375;6490
22;11471;8461
23;6763;2161
24;7770;2044
25;6019;3853
26;13955;5941
27;7713;2170
28;9221;667
29;6700;3196
30;11872;8038
31;4996;4780
32;12968;6778
33;7962;1837
34;12364;6562
35;11543;8371
36;12392;7507
37;6001;2737
38;13395;6472
39;7000;2809
40;9598;325
41;6520;2359
42;7334;2566
43;5017;4726
44;8890;1018
45;10896;7993
46;6304;3601
47;11294;8614
48;12365;7525
49;7577;2341
50;6985;2827
51;5018;4816
52;6979;2908
53;11973;7894
54;9362;523
55;11889;8020
56;5463;3448
57;12507;7363
58;12216;7696
59;5426;4474
60;7952;1963
61;9012;721
62;5504;4411
63;8946;946
64;7688;1171
65;7002;2836
66;4225;5671
67;6730;3106
68;10198;8704
69;11348;8479
70;13800;6157
71;4984;3943
72;3835;6076
73;9633;253
74;6730;3160
75;12386;6499
76;6480;3421
77;5596;4312
78;11743;8101
79;7234;2665
80;7753;2179
81;7043;2800
82;5017;4771
83;3765;5050
84;8372;1486
85;7358;2548
86;5655;4240
87;4228;5680
88;3969;5959
89;8211;1693
90;13075;7129
91;11900;6940
92;8282;1594
93;6296;3619
94;9384;514
95;11680;7237
96;3615;6283
97;8061;1711
98;12261;7651
99;3790;6067
100;4472;5428
101;8519;1387
102;5520;4366
103;3743;5104
104;12507;7399
105;12244;7678
106;5998;3889
107;5006;4789
108;4330;5590
109;9007;766
110;6516;3412
111;8260;1621
112;7537;2368
113;11998;7903
114;5372;4501
115;6878;2998
116;4195;5725
117;7436;2476
118;4207;5707
119;6528;2233
120;8743;1126
121;7911;1990
122;4031;5716
123;8393;487
124;11367;8551
125;12496;7390
126;7013;2890
127;5709;4186
128;6713;3169
129;6842;3007
130;4314;5581
131;4435;4465
132;11741;8128
133;4561;5356
134;13068;6931
135;4354;5545
136;12074;7723
137;12884;7012
138;3679;6202
139;7718;2152
140;12942;6958
141;5934;3907
142;8548;1315
143;7588;2269
144;7673;2242
145;6501;3439
146;10578;8344
147;13300;6661
148;6899;3034
149;7926;1972
150;6428;3484
151;12243;7669
152;6909;2971
153;11799;7111
154;6014;3718
155;7055;2773
156;13036;6688
157;7000;2899
158;8535;1378
159;13038;6805
160;7363;2539
161;11404;8416
162;8012;1873
163;12360;7561
164;10962;8938
165;8621;1270
166;6039;3772
167;8022;1729
168;11501;8407
169;5045;4681
170;4407;5482
171;9600;316
172;4201;5689
173;5914;3988
174;4045;5779
175;9010;712
176;6522;2386
177;12438;7444
178;12781;7084
179;3785;5149
180;6676;3232
181;11796;8074
182;13296;6607
183;5949;3961
184;5694;4204
185;5528;4402
186;5946;3952
187;6966;1864
188;8249;1630
189;8604;1306
190;7265;2629
191;11258;7660
192;7251;2584
193;9736;172
194;7570;2323
195;6287;2602
196;3777;6175
197;13396;6508
198;6579;3358
199;6967;1927
200;4991;4906
201;9057;847
202;6575;3331
203;12098;6742
204;11321;8560
205;5608;4231
206;10289;8641
207;3941;5986
208;5482;4420
209;7609;2278
210;8358;1459
211;4479;5410
212;5720;4213
213;11288;8587
214;13079;5833
215;11378;8533
216;6764;3115
217;9777;100
218;6175;2647
219;9497;397
220;8845;1072
221;9745;163
222;11274;7633
223;7287;2710
224;5876;4042
225;13914;5977
226;12619;7282
227;13014;6877
228;5715;4159
229;11320;7588
230;6382;3511
231;8619;1279
232;12851;6049
233;7010;2791
234;12988;6949
235;7036;2746
236;8262;613
237;8901;1009
238;4848;5059
239;3983;5788
240;11380;7480
241;9468;442
242;13633;6274
243;4736;5113
244;4261;4663
245;6001;3844
246;4407;5491
247;4485;5401
248;5749;3151
249;6951;2935
250;11482;8434
251;13277;6625
252;8691;1243
253;11416;8497
254;8034;1792
255;9036;703
256;9356;532
257;11002;8803
258;5995;3763
259;5016;4861
260;6346;3547
261;12741;7183
262;13741;6130
263;5009;4834
264;11189;8695
265;11971;7930
266;6936;2062
267;3907;5950
268;8643;1252
269;9023;874
270;8330;1504
271;7469;2422
272;13035;6841
273;5025;4717
274;4903;3979
275;9742;154
276;11482;8425
277;5854;4051
278;6592;2287
279;4757;5122
280;12964;6886
281;11500;8398
282;6848;3061
283;12720;7174
284;13549;6337
285;4252;4654
286;12020;7759
287;10933;9082
288;12763;6211
289;8209;1603
290;11200;8686
291;4722;5212
292;3898;6031
293;7345;2530
294;7979;1891
295;12013;7831
296;9251;658
297;4596;5311
298;4533;5392
299;6829;3070
300;5002;3916
301;6348;3556
302;4019;5869
303;11541;8362
304;7370;2557
305;10901;9001
306;11034;8857
307;8008;784
308;8618;1351
309;8728;1108
310;5736;4168
311;9829;127
312;12267;7642
313;6466;3430
314;12625;7273
315;3480;6418
316;5896;4006
317;7389;2485
318;5471;4447
319;5995;2854
320;12710;7201
321;9440;460
322;4290;5617
323;7592;1324
324;10935;8992
325;12911;7003
326;8583;1333
327;12603;7300
328;6383;3457
329;6523;3376
330;6995;1747
331;7888;1999
332;6737;3187
333;12975;6895
334;3872;5005
335;6452;3394
336;4235;5653
337;7934;1981
338;11991;6769
339;5835;4078
340;5919;3970
341;13488;6436
342;4233;4699
343;12914;7075
344;12619;7264
345;4030;4888
346;4721;5176
347;4605;5248
348;6050;3727
349;5816;4069
350;8725;1144
351;8361;1540
352;8006;1882
353;8398;1477
354;6575;2251
355;9510;343
356;8204;1576
357;7006;2755
358;7737;1189
359;13017;6733
360;9565;352
361;10994;8920
362;4421;5455
363;9432;451
364;3991;5824
365;11987;7921
366;4694;5185
367;9030;829
368;8060;1720
369;12382;7516
370;4849;5041
371;7202;2620
372;4848;5068
373;7197;2719
374;3685;6220
375;6228;3682
376;7462;2431
377;4301;5608
378;8451;469
379;5557;4321
380;6274;3637
381;11158;8749
382;7214;1684
383;6904;3025
384;12067;7732
385;6951;2953
386;7890;1045
387;3713;6193
388;5408;4375
389;8004;1774
390;6013;2872
391;3535;6364
392;3763;6121
393;6661;3223
394;10371;8488
395;7007;2683
396;13456;6463
397;8923;973
398;6645;2260
399;12442;7453
400;11364;8515
401;10726;8092
402;12234;7687
403;9327;577
404;12380;6544
405;3586;6319
406;11409;8470
407;9630;289
408;11905;6967
409;5827;4060
410;6196;3709
411;8884;1027
412;7973;775
413;5603;4303
414;5996;3862
415;6971;2881
416;4820;4096
417;9017;802
418;4011;5923
419;6963;2944
420;5558;4348
421;8717;1180
422;12018;7750
423;10960;8956
424;8049;748
425;5908;3997
426;4786;5077
427;5010;4807
428;13040;5914
429;4987;4798
430;12594;7345
431;7732;2125
432;4668;5302
433;8839;1081
434;12575;7354
435;10252;8650
436;11970;7822
437;13543;6391
438;5518;4384
439;13287;6598
440;13578;6328
441;12751;6139
442;8975;937
443;8997;910
444;6091;3790
445;8874;982
446;4345;5518
447;13538;6373
448;12998;6904
449;4014;4897
450;11340;8569
451;6611;3295
452;4712;5140
453;7980;919
454;10864;9019
455;9016;883
456;7766;2089
457;5492;4429
458;7333;2575
459;4602;5329
460;6771;3097
461;6250;2656
462;4943;4924
463;5988;3925
464;11287;8596
465;7732;1090
466;7854;2053
467;8006;1810
468;8004;1783
469;12976;5860
470;5632;4276
471;6351;3529
472;11853;8056
473;4993;4879
474;11395;8506
475;11634;8272
476;6007;2764
477;13327;6571
478;7939;1954
479;4923;4960
480;13054;5734
481;11377;8524
482;11921;7984
483;8881;1036
484;4523;5383
485;6388;3493
486;11057;8866
487;3575;6301
488;3866;6022
489;10792;9046
490;10396;8542
491;8776;1063
492;6627;3277
493;12736;7165
494;10712;8191
495;5020;4690
496;7037;2863
497;13044;5743
498;8393;1513
499;9717;199
500;9022;757
501;6039;3835
502;13260;6634
503;5875;4024
504;13915;6004
505;12842;6040
506;4046;5815
507;11226;8785
508;12218;6670
509;4533;5365
510;7620;2305
511;12715;7192
512;8649;1216
513;11011;8839
514;9037;685
515;5344;4546
516;11518;8380
517;12765;7102
518;7404;2413
519;10876;8002
520;11606;8299
521;4415;5464
522;4654;4285
523;5332;4573
524;5285;4609
525;6704;3214
526;7975;1945
527;6594;3313
528;8882;964
529;7887;2017
530;9706;190
531;5044;3817
532;11927;7966
533;9309;604
534;12926;6976
535;12077;7858
536;12332;7579
537;4934;4969
538;3826;6058
539;6890;3016
540;13007;6751
541;11960;6913
542;12504;7435
543;11971;7912
544;9250;640
545;12406;7471
546;12289;7615
547;9455;388
548;12669;7255
549;5697;4195
550;8910;1000
551;5016;4735
552;5634;4267
553;12952;6985
554;12269;7606
555;11987;6823
556;9606;307
557;4222;5644
558;12400;7489
559;9387;622
560;6358;3538
561;11679;8173
562;4009;4825
563;4555;5347
564;5032;4744
565;5308;4600
566;12055;6724
567;7365;2521
568;8484;1441
569;12323;7570
570;12656;6247
571;9022;811
572;8881;730
573;12774;7093
574;6011;3826
575;12371;7534
576;11268;8632
577;8707;1153
578;12347;7543
579;6349;3520
580;10288;8605
581;5631;4258
582;11987;7876
583;11773;8110
584;7835;2080
585;13473;6427
586;8455;1450
587;8739;181
588;4747;5095
589;12906;6994
590;10846;9073
591;13009;6850
592;11958;7948
593;13997;5905
594;9235;649
595;11833;8083
596;10921;8983
597;6226;2674
598;8649;1234
599;6573;3340
600;8009;1846
601;10946;7975
602;7832;2071
603;5974;3934
604;5379;4537
605;4752;4132
606;10941;8965
607;8566;1342
608;13742;6112
609;6018;3745
610;6585;3322
611;9543;370
612;11721;7120
613;11968;7786
614;12996;6787
615;7267;2638
616;13005;6859
617;7721;2188
618;4017;5896
619;11009;7804
620;8027;1765
621;9698;208
622;11008;8902
623;4018;4843
624;11042;8884
625;8641;1207
626;7419;2449
627;8393;1495
628;8337;1558
629;9812;109
630;6621;3286
631;12296;6616
632;8986;838
633;6604;3304
634;11931;7957
635;11865;8047
636;8642;1198
637;13772;6103
638;12898;5995
639;10866;9064
640;7982;1936
641;12352;6580
642;12034;7741
643;12984;6922
644;3291;5599
645;10958;8947
646;13737;6148
647;4351;5554
648;5987;3799
649;4328;5572
650;8992;739
651;5871;4033
652;4979;4942
653;5691;4141
654;4407;5500
655;4984;4933
656;4830;4087
657;4641;5266
658;11000;8893
659;11700;8200
660;6010;3898
661;6254;3610
662;4013;5851
663;5386;4519
664;3911;4978
665;6640;3268
666;9675;262
667;12851;7057
668;5194;4708
669;13412;6535
670;12965;6832
671;11316;7597
672;8216;1675
673;7990;1918
674;8017;1828
675;8499;379
676;11722;8155
677;9348;541
678;7474;2404
679;5269;3664
680;3636;6265
681;5587;4330
682;11723;8164
683;9599;280
684;12581;7336
685;7701;2206
686;6736;3142
687;3992;5878
688;12530;7372
689;4885;5023
690;9016;865
691;10996;8758
692;4357;5536
693;11636;8263
694;9662;244
695;9453;433
696;7062;2728
697;4028;5770
698;8738;136
699;3621;6292
700;9540;361
701;12654;7219
702;7355;1522
703;11742;8137
704;6318;3592
705;11905;8065
706;6328;3565
707;12471;7462
708;6167;3736
709;10002;8794
710;7992;1900
711;12476;7408
712;5338;4636
713;13198;6697
714;12855;7066
715;12644;7156
716;6211;3691
717;7744;2134
718;9254;631
719;12009;7705
720;6537;3367
721;7879;2008
722;13437;6445
723;9968;8911
724;9345;550
725;5708;4105
726;7408;2395
727;6343;2593
728;5744;4123
729;9749;118
730;8749;1117
731;9737;9091
732;7762;2116
733;8464;1432
734;11541;8353
735;13045;6814
736;9596;235
737;5891;4015
738;6228;3673
739;3842;6085
740;4254;5626
741;11128;8776
742;9962;8929
743;5720;4177
744;13647;6256
745;8735;1099
746;8392;478
747;11019;8731
748;11016;8875
749;12358;6526
750;11352;8578
751;7004;2845
752;8615;1405
753;4218;5698
754;11559;8335
755;11652;8254
756;3600;5284
757;3866;6013
758;9715;226
759;4920;4987
760;11698;7210
761;4985;4915
762;4462;5446
763;8404;1585
764;3730;5167
765;6740;3124
766;9489;424
767;12659;7246
768;5020;3871
769;7361;2494
770;9395;505
771;11730;8182
772;5529;3385
773;13036;6868
774;12594;7309
775;11462;7426
776;5728;4150
777;7764;2098
778;8001;1756
779;3682;5230
780;4387;5473
781;5750;4249
782;5586;4339
783;4371;5527
784;11972;7849
785;4891;5014
786;6642;3241
787;6823;3079
788;8545;1360
789;12701;7228
790;13354;6517
791;9342;568
792;11506;8443
793;13069;6706
794;6991;1801
795;12021;7795
796;13732;6166
797;6291;3655
798;11089;8848
799;4507;5320
800;5090;4852
801;5866;3088
802;5088;4762
803;4686;5194
804;9402;496
805;10592;8326
806;7420;2440
807;6815;3043
808;11627;8290
809;10021;8830
810;12036;7777
811;6915;2989
812;11863;7021
813;3772;6094
814;12481;7417
815;6636;3259
816;13284;6652
817;11040;8812
818;7460;2467
819;6273;2611
820;3695;6184
821;11690;8218
822;5018;4753
823;5850;3052
824;8239;1648
825;11227;8668
826;7864;2035
827;10090;8821
828;6487;3403
829;4995;4870
830;8358;1549
831;3659;6238
832;13233;6679
833;12025;7768
834;4609;4294
835;11667;8227
836;8941;901
837;6572;3349
838;8020;793
839;11609;8317
840;4940;4951
841;4379;5509
842;10941;8974
843;11964;7939
844;5402;4492
845;8556;406
846;8269;1639
847;5346;4564
848;13490;6409
849;6651;2215
850;4563;5338
851;8250;1657
852;7881;2026
853;11739;7138
854;6420;3502
855;6043;3781
856;10883;9037
857;4646;5275
858;4492;5419
859;13522;6355
860;8416;1468
861;6258;3646
862;12378;7552
863;13659;6229
864;12523;6310
865;4290;5635
866;8341;1567
867;12519;7381
868;6006;3754
869;8228;1666
870;8374;1531
871;6949;2980
872;5978;3880
873;12852;7030
874;4621;5293
875;8714;1225
876;11198;8677
877;11510;8389
878;13006;6796
879;7621;2296
880;12023;7840
881;8039;1738
882;5433;3475
883;9023;820
884;8906;991
885;6035;3808
886;9496;415
887;11765;8119
888;6734;3133
889;11739;8146
890;11009;7885
891;11028;8713
892;11881;8011
893;6562;2350
894;7455;2458
895;7583;2314
896;8478;1414
897;8366;559
898;6939;2962
899;7002;2917
900;13457;6454
901;8012;892
902;10874;9028
903;9024;856
904;5303;4582
905;4178;4672
906;5358;4528
907;5476;4456
908;4470;5437
909;9816;9055
910;5287;4618
911;4006;5842
912;13570;6346
913;11627;8281
914;11026;8740
915;4665;5221
916;5671;3250
917;5346;4555
918;12844;7039
919;10896;9010
920;6326;3574
921;11044;8767
922;11249;8659
923;11600;8308
924;4736;5131
925;6703;3205
926;12992;5887
927;5324;4510
928;6994;2818
929;7500;2377
930;6448;3466
931;4647;5239
932;5282;4645
933;5316;4591
934;8363;1423
935;13027;5752
936;12632;7291
937;7379;2512
938;12372;6553
939;4530;5374
940;4015;5806
941;8516;1396
942;12252;6643
943;12016;7813
944;13527;6382
945;3800;5086
946;6261;3628
947;9245;676
948;9212;586
949;7938;1909
950;8943;955
951;3978;5932
952;7364;2503
953;10680;8245
954;4253;5662
955;7566;2332
956;8755;1162
957;11872;7048
958;8627;1288
959;9691;217
960;5752;4114
961;4352;5563
962;8979;928
963;7682;2224
964;4737;5158
965;5406;4483
966;9725;145
967;4650;5257
968;8739;1135
969;6691;3178
970;8236;694
971;4714;5203
972;11995;7867
973;7206;2701
974;10454;8452
975;13506;6400
976;7035;2782
977;5460;4438
978;11120;8722
979;8025;1855
980;9616;298
981;4656;4222
982;5488;4393
983;6194;3700
984;12277;7624
985;6974;1819
986;13429;6481
987;4014;5797
988;12190;7714
989;7733;2143
990;13051;6715
991;13323;6589
992;7200;1702
993;5560;4357
994;7709;2197
995;9564;334
996;10892;8029
997;12383;7498
998;13020;6760
999;11593;7318
