#Mode:;3
#Device:;tramani_wired
#Button:;298
#minDelay:;100
#maxDelay:;10000
#iterations:;1000

counter;latency;delayTime
0;7819;2026
1;3695;5239
2;8368;1513
3;6997;2800
4;6236;3673
5;9494;415
6;8886;721
7;9384;541
8;8041;1729
9;12391;7462
10;10773;9091
11;5482;4420
12;13517;6391
13;4284;5608
14;6944;2962
15;8741;1126
16;6406;3475
17;3561;5347
18;11355;8542
19;7004;2791
20;7530;2386
21;11967;6913
22;13051;6751
23;9018;775
24;9894;8974
25;6636;3295
26;7999;1774
27;11633;8299
28;10947;8956
29;4778;5131
30;13696;6211
31;4700;4078
32;4530;5392
33;12284;7624
34;8760;1099
35;4002;4897
36;7760;2107
37;11959;7912
38;10676;8236
39;9280;694
40;8239;1648
41;13737;6157
42;12717;6193
43;8998;874
44;13630;6283
45;11019;7705
46;13506;6346
47;13769;6094
48;11581;7309
49;11740;8164
50;9483;424
51;12656;6274
52;5780;4105
53;12014;7687
54;8563;1342
55;6016;2746
56;6565;3340
57;6897;3016
58;8539;1351
59;7909;2017
60;6755;3169
61;7925;1972
62;7022;2692
63;11400;8470
64;10810;9064
65;12954;6949
66;8502;1405
67;5955;3952
68;9506;406
69;7022;2755
70;7712;2197
71;10294;8659
72;12998;6805
73;11332;8578
74;13022;5860
75;12248;7651
76;4010;5806
77;10057;8731
78;3945;5950
79;12602;7300
80;11040;7795
81;8514;1396
82;9379;532
83;7609;2305
84;5024;4753
85;6470;3439
86;11020;8758
87;8458;1450
88;7582;2314
89;12382;7480
90;4501;5446
91;5913;3970
92;9965;8920
93;13291;6616
94;13379;6508
95;11529;7381
96;11636;8272
97;6839;3088
98;8031;1855
99;6681;3223
100;6738;3142
101;9401;505
102;13037;6787
103;12360;7453
104;4995;4951
105;8008;1882
106;11892;6958
107;9233;613
108;8699;1198
109;7728;2179
110;11221;7696
111;13210;6670
112;9354;550
113;8731;1171
114;6371;3520
115;8977;631
116;11842;8056
117;11823;7093
118;8654;1252
119;8661;1207
120;7408;2476
121;10529;8344
122;11932;7975
123;12368;7543
124;9860;9028
125;4729;5122
126;4984;4942
127;6900;2989
128;4249;4654
129;12921;6985
130;4966;4933
131;4661;5266
132;5989;3889
133;5021;4726
134;10982;8938
135;5466;4330
136;8015;1747
137;6042;3808
138;7279;2638
139;8740;1153
140;8606;280
141;12663;7246
142;9731;181
143;13995;5887
144;4430;5536
145;5500;4294
146;9314;568
147;9616;226
148;7982;1936
149;13238;6580
150;13687;6229
151;4718;4213
152;5386;4510
153;12518;7390
154;8931;946
155;8397;523
156;7296;2584
157;6797;3079
158;11600;8308
159;12752;7120
160;11708;8200
161;11869;8038
162;8692;1216
163;4476;5428
164;5334;4564
165;7000;2890
166;10595;8317
167;8006;1783
168;12448;7435
169;8987;919
170;13010;6796
171;9592;334
172;6552;3376
173;4013;4906
174;5692;4222
175;6485;3421
176;12268;7633
177;10356;8452
178;5305;4600
179;9618;298
180;6646;3241
181;11714;7183
182;3816;6139
183;7262;2656
184;11767;8119
185;12576;7336
186;6994;2773
187;4271;5635
188;10790;8101
189;8031;1828
190;6004;3817
191;6299;3592
192;5966;2953
193;7873;2035
194;12033;7750
195;8864;1036
196;12174;6679
197;8582;1315
198;7952;1954
199;4419;5482
200;4030;5761
201;7276;2629
202;4767;5140
203;4908;4996
204;3466;5455
205;6491;3412
206;6476;3430
207;6734;3160
208;11526;7372
209;6866;3043
210;3947;5977
211;6035;3709
212;7009;2818
213;4193;5698
214;6338;3583
215;4035;5743
216;8206;1693
217;3737;6130
218;5860;4051
219;12011;7894
220;10984;7867
221;7897;2008
222;12184;7714
223;7224;2701
224;13018;5842
225;4406;5491
226;8393;1486
227;4627;5275
228;13018;6886
229;6382;3466
230;6930;2980
231;5679;4240
232;13343;6562
233;4043;5707
234;6570;3304
235;11701;7165
236;11908;8002
237;13234;6643
238;7581;2323
239;4377;5500
240;5431;4474
241;4216;5653
242;7233;2674
243;4942;4987
244;8605;1324
245;12256;7642
246;8983;910
247;13230;6706
248;13033;6877
249;6221;3691
250;12881;6004
251;11036;8812
252;7069;2836
253;11835;7057
254;3968;5779
255;11729;8191
256;6016;3880
257;12358;7552
258;6372;3502
259;13190;6652
260;8020;829
261;6559;3331
262;4949;4960
263;13015;6850
264;4424;4465
265;9002;811
266;6735;3151
267;7625;2278
268;5858;3052
269;12465;7444
270;13661;6256
271;4656;5221
272;11299;8623
273;11893;8047
274;12954;6994
275;7989;1927
276;8169;1738
277;12987;6778
278;10983;7804
279;8347;1531
280;13440;6454
281;5034;4735
282;8030;1801
283;3973;5932
284;5732;4123
285;4374;5518
286;7738;1180
287;13046;6841
288;12663;7219
289;9866;8992
290;3979;5788
291;5018;4843
292;11622;8281
293;3914;4969
294;5351;4555
295;5386;4501
296;6629;3259
297;6536;2377
298;6004;3763
299;5312;4591
300;11575;8326
301;10558;8353
302;7000;2827
303;10858;9055
304;11524;7408
305;8345;1558
306;7416;2458
307;12415;7561
308;8005;1810
309;8288;1603
310;7017;2764
311;13966;5941
312;5520;4384
313;8542;1360
314;4989;4771
315;5708;4177
316;11224;7669
317;5968;3934
318;4773;5095
319;7919;1990
320;4971;3943
321;6343;3565
322;4956;4978
323;11283;8614
324;3573;6328
325;4259;5644
326;6602;3313
327;11238;8686
328;12608;7318
329;11062;8848
330;7332;2575
331;10971;7930
332;8803;1081
333;11360;8515
334;11618;7291
335;12203;7723
336;5838;4060
337;12864;6022
338;5858;4042
339;10943;9001
340;6707;3187
341;8240;703
342;7740;2116
343;6623;3286
344;8620;1288
345;5044;4690
346;6438;3493
347;5017;4825
348;7299;2611
349;9902;8983
350;6091;3736
351;3996;5914
352;4717;5185
353;9325;586
354;8686;1225
355;5004;4816
356;9709;217
357;11142;8767
358;9733;136
359;4611;5302
360;5245;4663
361;11775;8110
362;13075;6724
363;5597;4312
364;10922;8965
365;4985;4915
366;13071;6733
367;11522;8389
368;5005;3745
369;5526;4366
370;11397;8488
371;4742;5041
372;3477;5374
373;8288;1585
374;8001;1873
375;8004;1864
376;5887;3997
377;4006;5725
378;12049;7786
379;5019;4708
380;10719;8290
381;11764;8137
382;12730;7147
383;4751;4096
384;4498;5410
385;8964;937
386;5584;4321
387;9617;289
388;5904;4024
389;12754;7102
390;5343;4528
391;10251;8641
392;8410;1477
393;7873;2143
394;7377;2494
395;11749;7111
396;13547;6319
397;11640;8245
398;7736;1162
399;9521;379
400;4023;5770
401;9021;757
402;8332;1576
403;12886;7003
404;13420;6445
405;10961;7939
406;4613;5293
407;12400;7489
408;7382;2539
409;9988;8911
410;7691;2215
411;5726;4132
412;12671;7237
413;4675;5212
414;11414;8497
415;9052;748
416;10019;8749
417;4432;5509
418;6236;3664
419;12789;7075
420;13303;6607
421;8682;1234
422;7751;2098
423;11043;7876
424;4008;5752
425;13379;6481
426;5408;4519
427;5521;3367
428;7823;2071
429;7001;2737
430;11319;8632
431;5468;4438
432;8025;1711
433;13379;6571
434;8374;1549
435;7513;2395
436;9256;685
437;5244;4627
438;12680;7201
439;5199;4699
440;7264;2665
441;8867;1009
442;9450;451
443;11384;7525
444;3978;5896
445;4758;5113
446;5733;4195
447;5333;4609
448;4655;5320
449;13000;6769
450;12751;6121
451;9408;478
452;7704;2206
453;8243;1657
454;12947;6058
455;9247;595
456;4904;5005
457;7340;2566
458;7010;1765
459;3445;6463
460;5659;4249
461;11018;8884
462;4044;4717
463;9381;514
464;12481;7426
465;11514;8371
466;8371;1504
467;13001;6904
468;8844;1063
469;7596;2296
470;4228;5671
471;6467;3457
472;13734;6175
473;10414;8479
474;11938;7984
475;11554;8425
476;4336;4492
477;9440;469
478;11379;8506
479;7990;1819
480;7906;1000
481;8459;1423
482;5374;4537
483;13558;6373
484;4250;4681
485;5717;4159
486;12892;7021
487;10313;8605
488;8879;1027
489;4644;5257
490;8009;1900
491;8463;1441
492;6101;3772
493;8221;1594
494;11528;8380
495;4767;5104
496;4550;5356
497;4508;5401
498;11823;8083
499;12925;5959
500;3658;6238
501;11013;8893
502;9683;244
503;8257;1621
504;8470;1432
505;3807;6112
506;12448;7471
507;6635;3277
508;12862;7030
509;5992;3799
510;12090;6823
511;4510;5383
512;7313;2602
513;9026;739
514;6322;2512
515;4862;5023
516;11577;8362
517;12230;7678
518;9277;604
519;8946;964
520;7068;2854
521;9082;802
522;9990;8929
523;11349;8569
524;12927;6967
525;4003;4924
526;7439;2431
527;3921;6013
528;6258;3646
529;6910;1981
530;7716;2152
531;9731;118
532;8340;1567
533;12968;5905
534;7668;2233
535;6391;3484
536;8629;1279
537;8980;928
538;7519;2404
539;13422;6472
540;11439;8461
541;7947;1963
542;13346;6553
543;13867;6040
544;4432;4456
545;8015;1999
546;4866;5032
547;11836;8155
548;12469;6499
549;5339;4573
550;4581;5230
551;13505;6382
552;12865;7066
553;12856;7084
554;4820;5086
555;6284;3610
556;9731;145
557;9078;793
558;12897;6931
559;3852;6085
560;4708;5194
561;13223;6688
562;12630;6265
563;4904;5014
564;6785;3115
565;7940;1945
566;12262;6661
567;9230;676
568;7690;2188
569;9021;856
570;12007;6814
571;5530;4375
572;12650;7264
573;10191;8695
574;8932;982
575;12742;7129
576;11844;7993
577;7847;2044
578;11971;7813
579;11373;8560
580;12901;6976
581;12325;7579
582;8253;1639
583;8653;262
584;5297;4618
585;5587;4303
586;6034;3862
587;11966;6922
588;6751;3124
589;5004;4834
590;12629;7273
591;7614;1270
592;3932;5968
593;12392;7516
594;6981;2917
595;10945;8947
596;4741;5149
597;6579;3322
598;9381;496
599;5715;4168
600;7717;2161
601;3869;6031
602;13495;6364
603;12375;7507
604;8220;1684
605;7492;2413
606;13007;5869
607;7338;2557
608;12019;7831
609;9468;442
610;8763;1108
611;8938;955
612;7996;1792
613;9420;460
614;12002;6742
615;4361;5545
616;11017;8875
617;10219;8704
618;5751;4087
619;6378;3511
620;11841;8065
621;11044;8776
622;11646;8254
623;5020;4744
624;6597;2251
625;7117;2881
626;12513;7417
627;4296;5599
628;9999;8821
629;7854;2053
630;11875;8074
631;11007;7777
632;4860;5050
633;9209;712
634;13500;6409
635;11635;8263
636;5983;3853
637;4436;5473
638;8121;2170
639;4542;5365
640;7399;2485
641;9534;370
642;7390;2521
643;4985;3898
644;5705;4186
645;8041;1720
646;8642;1297
647;11707;7174
648;11002;8902
649;12375;7534
650;7716;1135
651;12886;7039
652;6974;2809
653;6851;3025
654;8773;100
655;13238;6697
656;7517;2368
657;5918;3961
658;12293;6625
659;6711;3196
660;13645;6247
661;10328;8587
662;3992;5833
663;11317;8596
664;5916;3988
665;3940;5986
666;10996;8785
667;7371;2530
668;6507;3403
669;4007;5851
670;6967;2935
671;7565;2341
672;10976;9019
673;12735;7138
674;7213;2719
675;8029;1846
676;3599;5311
677;11038;8803
678;6037;3781
679;5890;4006
680;4291;4582
681;5639;4267
682;8996;883
683;11117;8794
684;7401;1495
685;8692;1306
686;5585;4339
687;13392;6517
688;6742;3097
689;5569;4357
690;10834;9073
691;6558;3394
692;6661;3250
693;12560;7327
694;5998;3907
695;9522;388
696;8273;1630
697;9470;433
698;6971;2926
699;8414;1468
700;10928;7957
701;3722;6184
702;8519;1387
703;10777;8128
704;5463;4447
705;12009;7885
706;9022;838
707;12111;6859
708;12443;7498
709;6776;3061
710;7677;2242
711;11872;8029
712;12027;7822
713;11429;8434
714;9023;865
715;12888;7048
716;8711;1189
717;11866;7012
718;9642;271
719;4610;5284
720;8467;1459
721;11341;7588
722;12613;7192
723;6238;3655
724;9548;343
725;8771;1090
726;8561;1333
727;13516;6400
728;7651;1261
729;11026;8857
730;5023;4798
731;11378;8533
732;8793;1072
733;6264;3628
734;6367;3538
735;7749;2134
736;6346;2548
737;12019;7858
738;12602;7363
739;7584;2332
740;7266;2647
741;6908;2971
742;6315;3601
743;13025;5815
744;12488;7399
745;9650;235
746;12329;7570
747;5045;4780
748;11021;8713
749;11938;7966
750;4675;4204
751;9025;820
752;7420;2422
753;13681;6220
754;6013;2872
755;12245;7660
756;7022;2908
757;11544;7345
758;13049;6715
759;8988;892
760;11457;8443
761;11714;8173
762;5596;4231
763;11990;7849
764;13138;5797
765;9259;649
766;5624;4285
767;12039;6832
768;5761;4141
769;7634;2269
770;11387;8524
771;12836;6049
772;3610;6292
773;5543;4348
774;9583;325
775;6750;2224
776;13374;6427
777;6345;3556
778;4838;5077
779;5474;3448
780;5010;4807
781;6001;3871
782;6333;3574
783;4527;4393
784;12653;7255
785;12223;7615
786;11978;6940
787;13011;6895
788;13579;6337
789;7030;2728
790;9703;208
791;4568;5338
792;12010;7768
793;7962;784
794;4981;4852
795;5353;4546
796;6622;3268
797;4587;5329
798;8759;1117
799;8847;1054
800;5653;4258
801;7841;2080
802;9867;9046
803;12287;7597
804;13023;6760
805;13259;5563
806;5255;4636
807;7997;1909
808;5019;4861
809;7215;2710
810;11221;8677
811;6872;3034
812;4849;5068
813;4188;5716
814;9560;352
815;8057;1891
816;11880;8020
817;8265;1612
818;6210;3682
819;12563;7354
820;12282;6598
821;11502;8407
822;5011;4888
823;8227;1675
824;6730;3178
825;6032;3844
826;9716;199
827;6910;2998
828;12339;6535
829;6961;2944
830;11987;7921
831;9744;172
832;3713;6166
833;11744;8182
834;4168;5734
835;6316;2620
836;9042;730
837;5617;4276
838;8505;1414
839;6990;2899
840;8355;1540
841;8894;1018
842;11677;8227
843;9285;622
844;12961;6868
845;11730;8146
846;12694;7228
847;8180;1702
848;4699;5203
849;8029;1756
850;12387;6436
851;6971;2863
852;10926;9010
853;13682;6202
854;7846;2062
855;5001;4789
856;13316;6589
857;10948;7948
858;6840;3070
859;5994;3826
860;11020;8866
861;8664;253
862;7381;2503
863;4666;5248
864;6051;3718
865;10018;8740
866;3836;6067
867;11236;8551
868;10060;8830
869;8913;991
870;7541;2350
871;5791;4114
872;10509;8416
873;4340;5581
874;5982;3790
875;6495;3358
876;3367;5572
877;13361;6544
878;3969;5923
879;5970;3925
880;5055;3700
881;11983;7903
882;7029;2845
883;6775;3106
884;4706;4150
885;10994;8839
886;9228;667
887;11261;8650
888;9236;658
889;9383;487
890;6977;2782
891;4991;4879
892;8537;1369
893;13368;6526
894;9332;577
895;10785;8092
896;9013;847
897;4702;5176
898;9731;127
899;4281;5617
900;12744;7156
901;8038;1837
902;13387;6490
903;5273;3547
904;6019;3754
905;7989;1918
906;8363;1522
907;5596;3349
908;7406;2593
909;5246;4645
910;11895;8011
911;12835;6103
912;3613;6301
913;9521;361
914;11508;8398
915;7215;2683
916;8920;973
917;12630;7282
918;10637;8218
919;6342;3529
920;9595;316
921;4485;5419
922;4394;4483
923;7457;2440
924;4839;5059
925;6046;3727
926;6616;3214
927;4322;5590
928;4333;5554
929;4716;5167
930;5476;4402
931;10999;7759
932;5012;4870
933;9764;109
934;11694;7210
935;3908;5995
936;6247;3637
937;9690;190
938;7494;2359
939;8731;1144
940;13593;6310
941;13484;6418
942;7983;901
943;5990;3835
944;4280;5626
945;3993;5878
946;12598;6355
947;6201;3619
948;5483;4429
949;9726;154
950;12836;6076
951;4010;5824
952;12295;7606
953;5872;4015
954;5933;3979
955;9511;397
956;13210;6634
957;5481;4411
958;12045;7741
959;11698;8209
960;9023;766
961;6903;3007
962;5974;3916
963;4215;5680
964;8495;1378
965;10245;8668
966;7740;2125
967;4475;5437
968;11169;8722
969;9615;307
970;11589;8335
971;9732;163
972;7619;2287
973;7443;2467
974;7645;2260
975;6523;3385
976;4384;5527
977;5836;4033
978;5022;4762
979;7457;2449
980;10837;9037
981;4457;5464
982;6703;3205
983;12050;7732
984;12698;6148
985;8819;1045
986;4309;5662
987;6732;3133
988;9352;559
989;4225;5689
990;9274;640
991;5230;4672
992;8240;1666
993;12020;7840
994;5857;4069
995;4732;5158
996;9795;9082
997;7779;2089
998;8654;1243
999;6677;3232
